##TITLE=Sucrose (Lot #08519JI)
##JCAMP-DX=5.01  $$ Nicolet v. 1
##DATATYPE=INFRARED SPECTRUM
##ORIGIN=SWGDRUG 15 May 2024
##OWNER=SWGDRUG
##LONGDATE=2018/01/31
##TIME=19:09:50
##SPECTROMETER/DATA SYSTEM=Nicolet iS10
##DATA PROCESSING=
Retrieved from a Library
Subtraction or Addition
Multiplied by a scalar
##COMMENTS=
Number of sample scans: 32
Collection length: 47.69 sec
Sample gain: 0.0
Number of background scans: 32
Background gain: 1.0
Sample spacing:  0.000
Number of scan points: 16672
Resolution points: 8192
Number of FFT points: 65536
Apodization: N-B strong;
Phase correction: Mertz;
Laser frequency: 15798.67 cm-1
Number of rejected sample scans: -1
Number of rejected background scans: -1
##XUNITS=1/CM
##YUNITS=ABSORBANCE
##FIRSTX=649.920715
##LASTX=3999.808838
##FIRSTY=0.325039
##MAXX=3999.808838
##MINX=649.920715
##MAXY=1.000000
##MINY=0.000000
##XFACTOR=1.000000
##YFACTOR=1.000000E-09
##NPOINTS=1738
##DELTAX=1.928548
##ZPD=8192
##XYDATA=(X++(Y..Y))
649.921 325038592 313655360 306656064 302655744 301090720 301415680 
661.492 303885408 308555776 313885664 320475296 331985312 342307552 
673.063 354949248 369885312 383410688 388102560 378942496 359325248 
684.634 337469120 316155808 296137120 279585952 267956560 260316704 
696.205 254474256 247827328 239311648 229262672 219483904 212002624 
707.777 206801664 204984640 205811568 208148816 211486224 215758816 
719.348 220790640 226810560 233353184 240245648 248121232 256046480 
730.919 261849664 260368704 243073712 212013168 181693760 161674464 
742.490 151107248 145373136 140994112 136449712 131625968 126810968 
754.061 121735896 116441808 111472024 107093680 102510872 98349384 94572880 
767.561 91001552 87854840 85092888 82542072 80391808 78416032 76493712 
781.061 74114472 71325616 68854104 67277424 66217916 65650560 65415604 
794.560 65531888 65536508 65825960 66494672 66961700 67406896 68287872 
808.060 69807792 71427552 73320248 75761840 78334864 81372600 85192456 
821.560 89410336 94049744 99623232 105966056 112858896 120290968 128782856 
835.059 139174528 152920576 171016432 195863888 232860736 288006976 
846.631 359888736 414805376 400436960 326894976 256975584 222110576 
858.202 218494800 238050720 279794112 342274784 406407584 426265408 
869.773 377671296 299278464 237659472 202182944 183711536 176093200 
881.344 177291184 185196880 198162144 215693728 237907088 264657680 
892.915 296431040 334478624 379750624 433363616 498309728 577401792 
904.486 669607680 757709952 795286912 752787904 686223744 644242560 
916.058 611274048 580674176 546985088 480118400 382499712 293235872 
927.629 236151568 209036928 203564464 214732912 240736016 281307584 
939.200 332493408 373326656 368525376 313713856 249985360 208258000 
950.771 189506736 184733808 187644000 195611600 207706080 223491408 
962.342 243323232 267960704 298089280 334394336 378066176 430132768 
973.913 490977440 560359040 637334016 718835008 800987968 879677568 
985.485 950908928 1000000000 993907712 911926656 790234240 692414848 
997.056 649533312 653890432 684905920 713236288 708770368 676034880 
1008.627 655030720 659141568 655353472 612918272 539440000 463033408 
1020.198 412753984 402784192 428414144 476631648 537019520 605785024 
1031.770 684455936 771706752 846467584 877277056 873669888 863588160 
1043.341 863204416 876115520 883518976 878949632 872797632 861515712 
1054.913 836793600 805780800 796290112 824229760 868913856 883187904 
1066.484 834054336 738129536 637493952 552752832 485344672 433919488 
1078.056 397358304 370043168 347557568 326798816 300773600 267924048 
1089.627 238094816 222063392 226325120 249442880 285327296 329072224 
1101.199 370672864 391521184 379717984 351247712 339690368 357755008 
1112.770 388880896 406246336 399957216 385803808 383668736 393037152 
1124.342 401407936 401233952 387559552 360945312 333300576 312562432 
1135.913 293532736 264779008 222816736 176746320 137570784 108899832 
1147.485 89489072 76772096 68821472 65320604 67761496 77487952 90766944 
1160.985 97052352 91689376 84068376 84419168 91088768 93749632 85103536 
1174.485 67520168 48718720 35090724 27628852 24207448 22928688 23058190 
1187.985 24174394 26069140 28892278 33207302 39429380 47938720 59041416 
1201.485 73381016 92537312 115154680 127569128 115516696 88545024 66219920 
1214.985 54678620 51234616 53038884 59272148 70084152 86595240 109443944 
1228.486 135984528 158103008 168835360 170820944 169624992 164544032 
1240.057 153825072 136743344 113169488 87258880 65561368 50777836 42231568 
1253.557 38002568 36773224 37953196 41630492 47466388 54628192 62273948 
1267.057 70281456 78787440 86536568 91828720 97473560 105917608 111502904 
1280.557 107521552 96886056 84049176 70252000 57568128 49582420 47279844 
1294.058 49859500 56456208 66588864 78341368 88038832 92155120 92032512 
1307.558 92128960 95767688 103737864 115934664 130662632 147699680 167051008 
1321.058 184244352 188541344 178744944 167649120 161722880 157668272 
1332.629 156100240 163321264 185303488 221310928 255964880 268135584 
1344.201 263127776 252626688 235668880 209454608 181484976 160422496 
1355.772 150397472 151482304 161635952 178251408 193784624 196636928 
1367.344 188246736 180083792 178660416 176000384 164225040 147452368 
1378.916 135120176 134779552 142984368 147900240 142120448 128843728 
1390.487 115947616 105283656 96829408 91328104 89866424 92709344 99337384 
1403.987 111536544 125331584 132940960 133895176 131110144 129489960 
1415.559 132333144 141336544 157000288 167684960 173392800 176420592 
1427.130 177556640 176719120 171576720 164153312 158453216 155246368 
1438.702 152195856 147488352 140220128 130749744 120183936 110184928 
1450.273 104806416 105225024 111103376 127329232 146329856 143597296 
1461.845 130012976 114290040 99180280 87595552 80142072 81704080 92490072 
1475.345 94280312 82306048 63582272 45642076 33040340 24960486 19681952 
1488.845 16210845 13800045 10640644 8553098 8539333 8283195 7039482 5350794 
1504.274 3748714 6632976 8548042 6402343 5181782 4234091 4221136 4372670 
1519.703 3424799 5041222 4370277 3683634 3637645 2590545 1535766 3057906 
1535.131 2846892 454780 1894945 5128433 4351569 3823050 2546547 1779990 
1550.560 2008621 1159960 1094860 0 3019029 6047245 3034655 1882289 1573723 
1567.917 1354910 3069497 2399487 726908 2308812 3603650 2261942 1785872 
1583.346 1761954 1842561 1842551 1968644 2057746 2184620 2424056 2560974 
1598.775 2435408 2424644 2459854 2374833 2366671 2581463 2498183 1994015 
1614.203 1192049 3010588 4310328 2646652 2422588 3714559 3330810 3539879 
1629.632 3659905 2526590 1848120 4883746 6075259 4665327 4206201 3480488 
1645.061 3948307 7171976 6293897 3365647 7855696 9799806 7013947 5768249 
1660.490 5435487 6536937 6637898 5126850 5671235 7574984 6693502 6143941 
1675.918 7527467 6464287 5777133 4986529 7551101 9083976 7124991 6770077 
1691.347 6214555 4869811 6452398 7149616 6764827 9562854 7592188 7333204 
1706.776 7898918 7343864 6967172 6503419 6612626 8037254 10131430 8840325 
1722.204 7574850 7641780 7311700 7128579 7154931 6469762 9029248 9575047 
1737.633 7446791 8123459 8239534 8049890 7828544 7890498 8616182 9719762 
1753.062 9020151 7995187 8706687 8379926 8525717 9375731 8413936 7974299 
1768.490 8250050 8373252 10169909 9957615 8970389 8535715 8814093 8906863 
1783.919 8821582 9288008 8813630 8387938 9568547 10435493 9467019 8835497 
1799.348 8907077 9403273 9021783 8541134 8522696 8775001 9083578 9070320 
1814.777 8794022 9297598 9587642 9546933 9482695 10310514 10257065 9761292 
1830.205 10674586 10386602 9726670 9771380 9857197 9602945 8974058 10150958 
1845.634 10788814 10188099 10053849 10007466 10150724 10088874 10192134 
1859.134 10553374 10573022 10300332 9880736 9991771 11138458 11249641 
1872.634 10462565 10191936 10168107 10372160 10626515 10643033 10424957 
1886.134 10259026 10353318 11020452 11024448 11233154 11377715 11444476 
1899.635 11525640 11532280 11699504 11743065 11807746 12481379 12888269 
1913.135 12937568 12676817 13175989 13805942 13521149 13513519 13423736 
1926.635 13042137 12642125 12573746 13064049 13648218 13983364 13581615 
1940.135 13302142 13772897 13640911 12985986 12650077 12352410 13245727 
1953.635 13704424 13513071 13260179 13193621 13291263 13242990 12980526 
1967.135 14031697 14359230 13076013 12994511 13931523 14186719 14556499 
1980.635 14515202 14972735 15093523 15029897 15049758 15458814 16354883 
1994.135 16370036 15891304 16479677 15760891 14747865 14671997 15321841 
2007.635 15631270 15771272 15346939 15604530 16457502 17503074 17353076 
2021.136 17010262 16382568 15935775 15716564 16072165 16444860 17262224 
2034.636 17709892 18382064 18353628 18338920 18809614 19324252 19021996 
2048.136 19180652 18923062 18118690 17811778 18181616 18545374 18720038 
2061.635 18815486 18949736 18962888 18710482 18329552 18414172 18502412 
2075.134 18715948 18608730 18336218 18357360 18528726 18364734 18055368 
2088.634 17850454 17976188 18133818 18166350 18346706 18712282 18885490 
2102.133 19364660 19709972 19536070 19553072 20085542 20516176 20812652 
2115.632 20827852 20681978 20588454 20744672 20648504 20395600 20095616 
2129.131 20073246 20149382 20211160 20262666 20250408 19813544 19371478 
2142.631 19702780 20253188 20049088 20393304 20581946 21086614 21766532 
2156.130 21492012 20793726 20648522 20566202 20940318 21035472 21387768 
2169.629 21896588 21824358 21399294 21190774 21060144 21499184 21602504 
2183.128 21900298 22303044 22551500 23314324 23757564 23374042 23341932 
2196.628 23148592 22628378 22561254 22917012 22537468 21895198 21730852 
2210.127 22182416 22622124 22576122 22745620 23350226 23582078 23417810 
2223.626 23188862 23290120 23306912 23375742 23668618 23909498 24013970 
2237.125 24082346 23688174 23774352 24162498 24260850 24385220 24943544 
2250.625 25197178 25015266 25091268 25179728 24945588 25073744 25183090 
2264.124 25153022 25284602 25472984 25525392 25463070 25521890 25751328 
2277.623 25903752 26117274 26239116 26259154 26376662 26569704 26678262 
2291.123 26623778 26457824 26459668 26742314 26993042 26942746 26918512 
2304.622 27112168 27217758 27263040 27397438 27741800 28108784 28167414 
2318.121 28179572 28381384 28683680 28537696 28159976 28335996 28959228 
2331.620 29582228 29896014 30017242 30240404 30385048 30599484 30915348 
2345.120 31591028 31256470 29622312 28843704 29403724 30131732 30759938 
2358.619 31337884 31723436 31990592 32421720 32834668 33132828 33361622 
2372.118 33663920 33751404 33753044 33739800 33691752 33582600 33456758 
2385.617 33439216 33545584 33613260 33591260 33543844 33734728 33903264 
2399.117 33895096 33890536 34093064 34124640 34148204 34289896 34457488 
2412.616 34565412 34769620 35050292 35319740 35465368 35669908 35895276 
2426.115 36077412 36282220 36484464 36814948 37092260 37305244 37573060 
2439.615 37859888 38345448 38739352 38917480 39011732 39075656 39321988 
2453.114 39601908 39673492 39802552 40096552 40370572 40586760 40711088 
2466.613 40796012 40979620 41150272 41283036 41358148 41376772 41273608 
2480.112 41312312 41296872 41338196 41549352 41655300 41682940 41951012 
2493.612 42248840 42409984 42537852 42750436 42899872 42938508 42824292 
2507.111 42644744 42417012 42432924 42583464 42623488 42660484 42743620 
2520.610 42852416 43110364 43295972 43367536 43434920 43517416 43622624 
2534.109 43798464 43968052 44259444 44723484 45165640 45443396 45813872 
2547.609 46190044 46450888 46534880 46548536 46541004 46464500 46401936 
2561.108 46423120 46442816 46457336 46474932 46470536 46384956 46549360 
2574.607 46875204 46959268 46885896 46855944 46768668 46747056 46745828 
2588.106 46705112 46570920 46473432 46620164 46869384 47089272 47373524 
2601.606 47706932 48058180 48493976 49014332 49490412 50045224 50591044 
2615.105 51074000 51538932 52015460 52586776 53174628 53558376 53953516 
2628.604 54336164 54657552 54885864 55108900 55400092 55570828 55585280 
2642.104 55661588 55682128 55615880 55603276 55692388 55694392 55594344 
2655.603 55468908 55388840 55288120 55163776 55171756 55295028 55357556 
2669.102 55457216 55568004 55645892 55717876 55842188 55950196 56131360 
2682.601 56407268 56714012 57140624 57683172 58195704 58714624 59225604 
2696.101 59777528 60345676 60825380 61306784 61814940 62282924 62705792 
2709.600 63153416 63698164 64240648 64736216 65212852 65639196 66037208 
2723.099 66310904 66224560 65739476 64991608 64141116 63240968 62411064 
2736.598 61723552 61212724 60876592 60701512 60667436 60713956 60811800 
2750.098 61042200 61413708 61931464 62456832 62944876 63400940 63771868 
2763.597 64085312 64466624 64786076 65152200 65600856 66044688 66597752 
2777.096 67158960 67599360 68026264 68509776 68942560 69369344 69910040 
2790.595 70482280 71047016 71554664 72044696 72487016 72966744 73451656 
2804.095 73994624 74516920 75020584 75554056 76108864 76744376 77493464 
2817.594 78313216 79183024 80063944 80886480 81555848 81989512 82227152 
2831.093 82432488 82591992 82652024 82685160 82667368 82606592 82569320 
2844.593 82480736 82491248 82764840 83307072 84086944 85074744 86158384 
2858.092 87369320 88848504 90449232 92150448 94066344 96069000 98041312 
2871.591 99903768 101645632 103218048 104722232 106356648 108152488 
2883.162 110167904 112582320 115459008 118735848 122374240 125699312 
2894.733 127643080 127505016 125526768 122959064 121052424 120819376 
2906.303 123374728 129644840 138254208 143970512 141483664 132098808 
2917.874 122051712 115481880 113221744 114894176 120017824 127940016 
2929.445 137039408 144304656 147814192 149719648 152829936 157098016 
2941.016 159554176 155434656 142481232 124937832 109253032 98430544 92231896 
2954.515 89340792 88033944 86870040 85236264 83648008 83259880 85537064 
2968.014 91544520 97397184 95686048 87613688 81005136 79006992 80395152 
2981.514 82702032 83473848 82201240 80897192 81820552 85359016 88648800 
2995.013 87820016 83165112 78017128 74237672 72079784 71384424 71785120 
3008.512 73192064 75369608 77221480 77882320 77511352 76762072 76104600 
3022.011 75626728 75519632 75759560 76061176 76382904 76851248 77342248 
3035.511 77921584 78584424 79283288 79980416 80666328 81360672 82082160 
3049.010 82864600 83650616 84419016 85253792 86179672 87066424 87857936 
3062.509 88752232 89790328 90874736 91947656 92981368 94074168 95251280 
3076.009 96307032 97394000 98611392 99871624 101094920 102336584 103623584 
3089.508 104922656 106363360 107871152 109319296 110750080 112146144 
3101.079 113636384 115270136 116873880 118457152 120022456 121735256 
3112.649 123469456 125152456 126897376 128716944 130625528 132598504 
3124.220 134569392 136521776 138533600 140622624 142768560 144975872 
3135.791 147185344 149427936 151816320 154322752 156813536 159325680 
3147.362 162056080 164796032 167385872 170086272 172939024 175841008 
3158.933 178740896 181730144 184946352 188156256 191498096 194877760 
3170.503 198188592 201571984 205007040 208556192 212199376 216010400 
3182.074 219918064 223850112 227938672 232076224 236185536 240375344 
3193.645 244694848 249057584 253398240 257886944 262352880 266854880 
3205.216 271571968 276200608 280386880 284637824 288920256 293086656 
3216.787 296983776 300660448 304053088 307243744 310325856 313246688 
3228.357 315716736 317876736 319834368 321638400 323226080 324569568 
3239.928 325944736 327513760 328849088 329853504 330951488 332259424 
3251.499 333564832 334877440 336128512 337419296 338840608 340417408 
3263.070 341903136 343382432 345016736 346879808 348739488 350738080 
3274.641 352719264 354613440 356464576 358447552 360367104 362330528 
3286.211 364393984 366205248 367748096 369197152 370750432 372125056 
3297.782 373161952 374223456 375200256 376141568 376868960 377355552 
3309.353 377811968 378304192 378508928 378589280 378476320 378187648 
3320.924 377562208 376571488 375357248 373954624 372132384 369897920 
3332.495 367092704 363779840 360033024 356106592 351893216 347524224 
3344.065 343262848 339287040 335474944 332018816 329136640 326943680 
3355.636 325263328 324387744 324193408 324791520 326210336 328427712 
3367.207 331314432 334935520 338982656 343127008 346794944 349647296 
3378.778 351302464 351554688 349711968 345689856 339911712 332744320 
3390.349 324680576 316664096 309305216 302514752 296386688 291158752 
3401.919 286621344 282561248 278504608 274428288 270318368 266194672 
3413.490 261802848 257064640 251764112 246171904 240398544 234319344 
3425.061 227902128 221540816 215265296 209262096 203449440 197852000 
3436.632 192620160 187702608 183039136 179076480 175436480 172080432 
3448.203 168902256 165788496 163001744 160439760 158020880 155730800 
3459.773 153477568 151297296 149108656 147048416 144942544 142567840 
3471.344 140253104 138194256 136119968 133852216 131504072 129358184 
3482.915 127066448 124461288 121912808 119416816 116921504 114450088 
3494.486 112196464 110197552 108037712 105798680 103902600 102113336 
3506.057 99900864 97957496 96296168 94385304 92461808 90714176 89143520 
3519.556 87591448 86198576 85257184 84180200 83501288 83071152 82288880 
3533.055 81573488 81747096 82557600 83382192 84719024 87165160 91329344 
3546.554 97039488 102983752 110112272 118910456 127130080 133951824 
3558.125 138243616 137725184 131368680 120385888 107237768 94261816 82948328 
3571.625 73988520 67564912 62819904 59065060 56128188 53657088 51200436 
3585.124 50005524 51114912 50708336 48588204 47938220 48109788 47628304 
3598.623 47195148 47185948 46342792 44946384 44735976 45572300 44935032 
3612.122 44480716 44177320 43116696 44131248 45369512 43888896 41839168 
3625.622 40348008 42812128 46174812 44023348 43054996 42742732 42139368 
3639.121 41864720 41557172 40584608 39249136 40881632 44642088 45476160 
3652.620 42184896 40920064 42515192 41793812 40933920 40664636 40086880 
3666.119 38907348 39622372 42368520 40489820 40475648 44862328 43428180 
3679.619 42032556 41061120 40025112 38766664 40334316 43320168 43437964 
3693.118 42077504 41114076 40753768 40337568 41660124 42261392 40838416 
3706.617 39734940 40292804 42869404 44394032 42659724 40955140 40811696 
3720.116 41069644 41973704 42492132 42999292 41880680 40016780 40767624 
3733.616 42550248 45176456 44535532 41879596 39632704 42278496 45030792 
3747.115 41893168 42999408 45895464 45432120 42973840 42501956 43558200 
3760.614 43674960 42098908 42324164 42407964 42672164 44081732 43304080 
3774.114 42233692 41744148 42690448 43992836 43124092 43079864 43378668 
3787.613 43032404 42785460 42505092 41916084 42647992 42618276 41973064 
3801.112 45146004 44538924 42873152 45179600 44600144 42736140 41423360 
3814.611 42828328 44413784 42726212 45528816 46563232 44198564 44211500 
3828.111 43639832 43123888 43618720 43183656 43660144 45833088 46402608 
3841.610 45721220 45602668 44769740 43070740 41292524 42305792 49015200 
3855.109 49207812 46343536 44513104 44172124 45047368 45873128 44287532 
3868.608 45138156 47086932 46101856 46336108 44561624 43842776 45790616 
3882.108 45128212 45051436 46835160 45037924 45017456 46962004 46146028 
3895.607 44357292 44219784 45667324 46604936 47874156 48011004 46600256 
3909.106 45766384 45553872 45147624 45223820 46369260 46774284 46402140 
3922.605 46172092 46861024 46524776 46008004 46517840 47226200 46863384 
3936.105 46173880 45923184 45763272 46427460 46655404 46259984 46782620 
3949.604 47074040 46681520 46368548 46338508 46335340 46351732 46576084 
3963.103 46649268 46507724 46575352 46710484 46822196 46925948 47033704 
3976.603 46981656 46898944 46989936 47059700 46959248 46921356 46974352 
3990.102 47089152 47153668 47220840 47185948 47075364 47075364 
##END=
